# $E {\rm (keV)}$ $\nu L_\nu {\rm (erg/s)}$ $\nu L_\nu {\rm (erg/s)}$_err
0.001077390992344729 2.1421349843578527e+34 
0.001244151708426391 3.107864556670416e+34 
0.0014367239791114083 4.512553951255608e+34 
0.0016591029680492076 6.554616730681905e+34 
0.0019159022182480346 9.489282834193836e+34 
0.0022124493660594007 1.3631061944395866e+35 
0.002554896669963008 1.958205656278307e+35 
0.00295034864721637 2.7343048530182953e+35 
0.003407009466358378 3.869222099806174e+35 
0.0039343531534171 5.367234055186195e+35 
0.004543320142972228 7.400819773566996e+35 
0.005246544251781062 1.0068480697163862e+36 
0.006058614783832803 1.360752407002159e+36 
0.006996379204543336 1.8035907664427114e+36 
0.008079292663462606 2.3447488459983267e+36 
0.009329821616800328 2.9976912525854967e+36 
0.010773909923447293 3.7525041956918707e+36 
0.012441517084263911 4.6013603807641174e+36 
0.014367239791114081 5.491051713549468e+36 
0.016591029680492076 6.3520256945754e+36 
0.019159022182480345 7.087813457160768e+36 
0.022124493660594005 7.579127361651928e+36 
0.025548966699630082 7.689281017168949e+36 
0.029503486472163703 7.388084793911223e+36 
0.03407009466358378 6.656793219952439e+36 
0.039343531534171 5.46337491742881e+36 
0.045433201429722264 4.10519159390557e+36 
0.052465442517810615 2.7748710960575024e+36 
0.060586147838328025 1.6531436712906077e+36 
0.06996379204543336 8.514709112852639e+35 
0.08079292663462606 3.755031120829031e+35 
0.09329821616800327 1.3391291658959322e+35 
0.10773909923447292 0.0 
0.12441517084263912 0.0 
0.14367239791114078 0.0 
0.16591029680492075 0.0 
0.19159022182480345 0.0 
0.22124493660594005 0.0 
0.2554896669963008 0.0 
0.2950348647216371 0.0 
0.34070094663583783 0.0 
0.39343531534171 0.0 
0.4543320142972227 0.0 
0.5246544251781061 0.0 
0.6058614783832803 0.0 
0.6996379204543337 0.0 
0.8079292663462606 0.0 
0.9329821616800327 0.0 
